C:\Users\Polymers and Coating\OneDrive - California Polytechnic State University\FFS\Frostie July-Dec 2022\BACK-5838.D 12 Jul 22  08:01 pm,
Start of data points,
0.0939333,1286
0.0997167,1258
0.105483,1118
0.111267,1246
0.117033,1252
0.122817,1211
0.1286,1101
0.134367,1067
0.14015,1168
0.145917,1031
0.1517,1047
0.157483,1085
0.16325,1110
0.169033,1117
0.1748,1080
0.180583,962
0.18635,995
0.192133,1040
0.197917,1069
0.203683,1023
0.209467,994
0.215233,1027
0.221017,1148
0.2268,997
0.232567,1027
0.23835,1070
0.244117,1030
0.2499,1036
0.255683,905
0.26145,1003
0.267233,920
0.273,1052
0.278783,874
0.28455,926
0.290333,1027
0.296117,978
0.301883,1059
0.307667,984
0.313433,962
0.319217,936
0.325,967
0.330767,938
0.33655,832
0.342317,1032
0.3481,951
0.353867,930
0.35965,991
0.365433,898
0.3712,830
0.376983,879
0.38275,835
0.388533,816
0.394317,844
0.400083,870
0.405867,913
0.411633,861
0.417417,852
0.4232,829
0.428967,914
0.43475,961
0.440517,864
0.4463,917
0.452067,895
0.45785,940
0.463633,900
0.4694,885
0.475183,826
0.48095,868
0.486733,781
0.492517,862
0.498283,909
0.504067,837
0.509833,863
0.515617,830
0.5214,875
0.527167,855
0.53295,904
0.538717,849
0.5445,877
0.550267,830
0.55605,832
0.561833,973
0.5676,894
0.573383,845
0.57915,819
0.584933,811
0.590717,845
0.596483,806
0.602267,955
0.608033,891
0.613817,863
0.619583,893
0.625367,900
0.63115,855
0.636917,889
0.6427,876
0.648467,904
0.65425,867
0.660033,803
0.6658,816
0.671583,864
0.67735,814
0.683133,851
0.688917,934
0.694683,865
0.700467,827
0.706233,821
0.712017,735
0.717783,786
0.723567,733
0.72935,766
0.735117,872
0.7409,810
0.746667,853
0.75245,807
0.758233,746
0.764,762
0.769783,782
0.77555,840
0.781333,792
0.7871,765
0.792883,815
0.798667,804
0.804433,817
0.810217,767
0.815983,795
0.821767,918
0.82755,850
0.833317,797
0.8391,792
0.844867,766
0.85065,860
0.856433,872
0.8622,812
0.867983,745
0.87375,739
0.879533,724
0.8853,866
0.891083,795
0.896867,838
0.902633,863
0.908417,774
0.914183,857
0.919967,934
0.92575,837
0.931517,757
0.9373,775
0.943067,771
0.94885,777
0.954633,825
0.9604,829
0.966183,728
0.97195,798
0.977733,754
0.9835,719
0.989283,870
0.995067,802
1.00083,747
1.00662,745
1.01238,711
1.01817,797
1.02395,847
1.02972,806
1.0355,838
1.04127,755
1.04705,774
1.05282,756
1.0586,782
1.06438,848
1.07015,813
1.07593,760
1.0817,853
1.08748,817
1.09327,838
1.09903,861
1.10482,766
1.11058,824
1.11637,797
1.12215,861
1.12792,794
1.1337,846
1.13947,857
1.14525,780
1.15102,780
1.1568,891
1.16258,776
1.16835,781
1.17413,800
1.1799,793
1.18568,696
1.19147,771
1.19723,742
1.20302,796
1.20878,762
1.21457,738
1.22033,749
1.22612,766
1.2319,792
1.23767,874
1.24345,812
1.24922,768
1.255,780
1.26078,797
1.26655,702
1.27233,768
1.2781,768
1.28388,711
1.28967,796
1.29543,762
1.30122,730
1.30698,762
1.31277,721
1.31853,842
1.32432,768
1.3301,711
1.33587,704
1.34165,754
1.34742,708
1.3532,761
1.35898,819
1.36475,788
1.37053,751
1.3763,793
1.38208,701
1.38787,715
1.39363,672
1.39942,802
1.40518,762
1.41097,769
1.41673,748
1.42252,736
1.4283,800
1.43407,716
1.43985,780
1.44562,733
1.4514,635
1.45718,759
1.46295,753
1.46873,810
1.4745,716
1.48028,735
1.48605,747
1.49183,734
1.49762,757
1.50338,726
1.50917,734
1.51493,700
1.52072,712
1.5265,784
1.53227,700
1.53805,689
1.54382,738
1.5496,721
1.55538,683
1.56115,652
1.56693,763
1.5727,658
1.57848,696
1.58425,727
1.59003,815
1.59582,720
1.60158,687
1.60737,713
1.61313,677
1.61892,659
1.6247,727
1.63047,725
1.63625,744
1.64202,753
1.6478,676
1.65357,782
1.65935,751
1.66513,728
1.6709,761
1.67668,644
1.68245,625
1.68823,667
1.69402,673
1.69978,726
1.70557,713
1.71133,682
1.71712,708
1.7229,742
1.72867,650
1.73445,839
1.74022,697
1.746,698
1.75177,711
1.75755,764
1.76333,693
1.7691,727
1.77488,729
1.78065,724
1.78643,704
1.79222,707
1.79798,702
1.80377,689
1.80953,697
1.81532,670
1.8211,694
1.82687,686
1.83265,735
1.83842,704
1.8442,773
1.84997,783
1.85575,677
1.86153,769
1.8673,746
1.87308,830
1.87885,784
1.88463,782
1.89042,770
1.89618,640
1.90197,751
1.90773,644
1.91352,733
1.91928,711
1.92507,665
1.93085,714
1.93662,683
1.9424,693
1.94817,791
1.95395,642
1.95973,745
1.9655,746
1.97128,737
1.97705,785
1.98283,745
1.98862,779
1.99438,764
2.00017,698
2.00593,638
2.01172,742
2.01748,702
2.02327,703
2.02905,668
2.03482,793
2.0406,632
2.04637,760
2.05215,725
2.05793,735
2.0637,727
2.06948,713
2.07525,763
2.08103,729
2.0868,696
2.09258,678
2.09837,733
2.10413,701
2.10992,760
2.11568,664
2.12147,675
2.12725,676
2.13302,663
2.1388,687
2.14457,681
2.15035,686
2.15613,696
2.1619,739
2.16768,777
2.17345,649
2.17923,797
2.185,834
2.19078,730
2.19657,736
2.20233,700
2.20812,616
2.21388,778
2.21967,762
2.22545,701
2.23122,736
2.237,777
2.24277,706
2.24855,816
2.25432,667
2.2601,681
2.26588,737
2.27165,692
2.27743,656
2.2832,699
2.28898,752
2.29477,771
2.30053,704
2.30632,721
2.31208,669
2.31787,701
2.32365,742
2.32942,726
2.3352,747
2.34097,746
2.34675,712
2.35252,695
2.3583,663
2.36408,728
2.36985,709
2.37563,732
2.3814,794
2.38718,757
2.39297,741
2.39873,794
2.40452,705
2.41028,724
2.41607,758
2.42185,766
2.42762,741
2.4334,779
2.43917,737
2.44495,789
2.45072,755
2.4565,694
2.46228,737
2.46805,682
2.47383,735
2.4796,710
2.48538,763
2.49117,765
2.49693,747
2.50272,729
2.50848,800
2.51427,701
2.52003,752
2.52582,668
2.5316,694
2.53737,729
2.54315,792
2.54892,761
2.5547,801
2.56048,714
2.56625,752
2.57203,744
2.5778,707
2.58358,766
2.58937,708
2.59513,748
2.60092,706
2.60668,714
2.61247,770
2.61823,754
2.62402,766
2.6298,808
2.63557,767
2.64135,681
2.64712,793
2.6529,766
2.65868,776
2.66445,718
2.67023,750
2.676,735
2.68178,810
2.68755,752
2.69333,705
2.69912,821
2.70488,753
2.71067,767
2.71643,751
2.72222,751
2.728,721
2.73377,773
2.73955,680
2.74532,763
2.7511,777
2.75688,734
2.76265,764
2.76843,747
2.7742,716
2.77998,701
2.78575,720
2.79153,765
2.79732,712
2.80308,712
2.80887,696
2.81463,811
2.82042,673
2.8262,752
2.83197,660
2.83775,705
2.84352,669
2.8493,775
2.85507,768
2.86085,773
2.86663,726
2.8724,751
2.87818,767
2.88395,744
2.88973,743
2.89552,762
2.90128,780
2.90707,744
2.91283,784
2.91862,783
2.9244,796
2.93017,791
2.93595,764
2.94172,713
2.9475,867
2.95327,766
2.95905,855
2.96483,797
2.9706,823
2.97638,738
2.98215,719
2.98793,767
2.99372,770
2.99948,774
3.00527,750
3.01103,756
3.01682,748
3.0226,720
3.02837,688
3.03415,794
3.03992,756
3.0457,727
3.05147,804
3.05725,764
3.06303,775
3.0688,818
3.07458,755
3.08035,805
3.08613,688
3.09192,780
3.09768,769
3.10347,838
3.10923,738
3.11502,843
3.12078,818
3.12657,857
3.13235,767
3.13812,743
3.1439,727
3.14967,726
3.15545,748
3.16123,738
3.167,789
3.17278,794
3.17855,763
3.18433,758
3.19012,779
3.19588,805
3.20167,709
3.20743,767
3.21322,775
3.21898,750
3.22477,753
3.23055,778
3.23632,795
3.2421,791
3.24787,791
3.25365,734
3.25943,755
3.2652,782
3.27098,735
3.27675,697
3.28253,690
3.2883,779
3.29408,742
3.29987,802
3.30563,751
3.31142,770
3.31718,730
3.32297,705
3.32875,780
3.33452,757
3.3403,683
3.34607,832
3.35185,672
3.35763,775
3.3634,738
3.36918,777
3.37495,774
3.38073,777
3.3865,754
3.39228,740
3.39807,703
3.40383,763
3.40962,755
3.41538,768
3.42117,714
3.42695,774
3.43272,757
3.4385,751
3.44427,800
3.45005,829
3.45583,791
3.4616,763
3.46738,845
3.47315,776
3.47893,839
3.4847,812
3.49048,791
3.49627,768
3.50203,763
3.50782,697
3.51358,769
3.51937,729
3.52515,710
3.53092,760
3.5367,703
3.54247,680
3.54825,800
3.55402,767
3.5598,722
3.56558,734
3.57135,694
3.57713,698
3.5829,706
3.58868,786
3.59447,725
3.60023,803
3.60602,787
3.61178,778
3.61757,749
3.62335,770
3.62912,739
3.6349,845
3.64067,747
3.64645,765
3.65222,737
3.658,763
3.66378,780
3.66955,719
3.67533,795
3.6811,744
3.68688,740
3.69267,744
3.69843,723
3.70422,725
3.70998,690
3.71577,711
3.72153,701
3.72732,751
3.7331,733
3.73887,724
3.74465,695
3.75042,701
3.7562,769
3.76198,738
3.76775,772
3.77353,710
3.7793,687
3.78508,774
3.79087,728
3.79663,763
3.80242,669
3.80818,711
3.81397,743
3.81973,769
3.82552,731
3.8313,767
3.83707,639
3.84285,708
3.84862,766
3.8544,724
3.86018,741
3.86595,682
3.87173,697
3.8775,694
3.88328,683
3.88907,773
3.89483,747
3.90062,766
3.90638,691
3.91217,776
3.91793,723
3.92372,653
3.9295,733
3.93527,757
3.94105,720
3.94682,696
3.9526,714
3.95838,722
3.96415,730
3.96993,751
3.9757,737
3.98148,771
3.98725,710
3.99303,663
3.99882,700
4.00458,738
4.01037,719
4.01613,682
4.02192,634
4.0277,707
4.03347,710
4.03925,745
4.04502,780
4.0508,699
4.05658,661
4.06235,747
4.06813,709
4.0739,753
4.07968,714
4.08545,695
4.09123,694
4.09702,661
4.10278,729
4.10857,728
4.11433,747
4.12012,718
4.1259,691
4.13167,662
4.13745,695
4.14322,730
4.149,744
4.15477,751
4.16055,756
4.16633,728
4.1721,728
4.17788,734
4.18365,706
4.18943,749
4.19522,731
4.20098,746
4.20677,830
4.21253,761
4.21832,796
4.2241,712
4.22987,756
4.23565,737
4.24142,763
4.2472,757
4.25297,718
4.25875,833
4.26453,727
4.2703,693
4.27608,760
4.28185,719
4.28763,671
4.29342,763
4.29918,750
4.30497,763
4.31073,763
4.31652,775
4.32228,766
4.32807,728
4.33385,719
4.33962,739
4.3454,706
4.35117,738
4.35695,832
4.36273,796
4.3685,691
4.37428,684
4.38005,776
4.38583,757
4.39162,696
4.39738,762
4.40317,794
4.40893,759
4.41472,756
4.42048,738
4.42627,762
4.43205,783
4.43782,736
4.4436,759
4.44937,726
4.45515,709
4.46093,775
4.4667,836
4.47248,745
4.47825,730
4.48403,722
4.48982,781
4.49558,705
4.50137,730
4.50713,730
4.51292,720
4.51868,784
4.52447,763
4.53025,782
4.53602,793
4.5418,788
4.54757,690
4.55335,695
4.55913,737
4.5649,807
4.57068,769
4.57645,718
4.58223,741
4.588,762
4.59378,858
4.59957,763
4.60533,820
4.61112,710
4.61688,757
4.62267,793
4.62845,779
4.63422,786
4.64,850
4.64577,753
4.65155,703
4.65733,767
4.6631,764
4.66888,815
4.67465,821
4.68043,746
4.6862,834
4.69198,832
4.69777,827
4.70353,824
4.70932,777
4.71508,879
4.72087,738
4.72665,805
4.73242,817
4.7382,785
4.74397,818
4.74975,803
4.75552,787
4.7613,746
4.76708,787
4.77285,863
4.77863,850
4.7844,800
4.79018,760
4.79597,809
4.80173,775
4.80752,836
4.81328,790
4.81907,798
4.82485,752
4.83062,805
4.8364,804
4.84217,826
4.84795,888
4.85372,823
4.8595,795
4.86528,788
4.87105,817
4.87683,818
4.8826,818
4.88838,817
4.89417,731
4.89993,842
4.90572,795
4.91148,797
4.91727,799
4.92305,759
4.92882,841
4.9346,851
4.94037,739
4.94615,891
4.95192,808
4.9577,836
4.96348,833
4.96925,780
4.97503,808
4.9808,782
4.98658,807
4.99237,777
4.99813,841
5.00392,804
5.00968,859
5.01547,802
5.02123,819
5.02702,871
5.0328,965
5.03857,901
5.04435,846
5.05012,901
5.0559,908
5.06168,845
5.06745,796
5.07323,844
5.079,793
5.08478,835
5.09057,834
5.09633,850
5.10212,761
5.10788,837
5.11367,832
5.11943,773
5.12522,847
5.131,807
5.13677,759
5.14255,807
5.14832,836
5.1541,771
5.15988,826
5.16565,828
5.17143,808
5.1772,774
5.18298,745
5.18875,867
5.19453,840
5.20032,829
5.20608,809
5.21187,781
5.21763,780
5.22342,774
5.2292,760
5.23497,794
5.24075,803
5.24652,784
5.2523,771
5.25808,902
5.26385,768
5.26963,745
5.2754,855
5.28118,815
5.28695,793
5.29273,835
5.29852,825
5.30428,819
5.31007,803
5.31583,792
5.32162,911
5.3274,872
5.33317,797
5.33895,849
5.34472,872
5.3505,831
5.35628,746
5.36205,821
5.36783,868
5.3736,866
5.37938,876
5.38515,839
5.39093,854
5.39672,862
5.40248,862
5.40827,887
5.41403,890
5.41982,921
5.4256,893
5.43137,860
5.43715,901
5.44292,885
5.4487,867
5.45447,836
5.46025,908
5.46603,858
5.4718,871
5.47758,868
5.48335,792
5.48913,942
5.49492,905
5.50068,892
5.50647,828
5.51223,796
5.51802,872
5.5238,886
5.52957,769
5.53535,823
5.54112,812
5.5469,775
5.55267,839
5.55845,837
5.56423,790
5.57,819
5.57578,759
5.58155,791
5.58733,785
5.59312,809
5.59888,775
5.60467,802
5.61043,782
5.61622,787
5.62198,829
5.62777,829
5.63355,880
5.63932,876
5.6451,853
5.65087,881
5.65665,866
5.66243,813
5.6682,858
5.67398,757
5.67975,797
5.68553,849
5.69132,798
5.69708,882
5.70287,819
5.70863,732
5.71442,795
5.72018,844
5.72597,761
5.73175,777
5.73752,751
5.7433,753
5.74907,877
5.75485,758
5.76063,809
5.7664,783
5.77218,792
5.77795,813
5.78373,837
5.7895,749
5.79528,847
5.80107,778
5.80683,887
5.81262,772
5.81838,841
5.82417,0
5.82995,249
5.83572,585
5.8415,490
5.84727,459
5.85305,450
5.85883,465
5.8646,461
5.87038,456
5.87615,452
5.88193,437
5.88772,452
5.89348,459
5.89927,467
5.90503,474
5.91082,450
5.91658,469
5.92237,469
5.92815,461
5.93392,467
5.9397,458
5.94547,462
5.95125,444
5.95703,480
5.9628,458
5.96858,460
5.97435,476
5.98013,469
5.9859,465
5.99168,469
5.99747,455
6.00323,456
6.00902,446
6.01478,464
6.02057,480
6.02635,467
6.03212,470
6.0379,453
6.04367,440
6.04945,445
6.05523,453
6.061,466
6.06678,448
6.07255,459
6.07833,445
6.0841,463
6.08988,475
6.09567,496
6.10143,448
6.10722,461
6.11298,465
6.11877,450
6.12455,452
6.13032,469
6.1361,473
6.14187,449
6.14765,468
6.15342,462
6.1592,475
6.16498,460
6.17075,466
6.17653,464
6.1823,473
6.18808,461
6.19387,504
6.19963,473
6.20542,487
6.21118,459
6.21697,473
6.22275,475
6.22852,473
6.2343,509
6.24007,475
6.24585,482
6.25162,481
6.2574,488
6.26318,486
6.26895,477
6.27473,482
6.2805,467
6.28628,480
6.29207,475
6.29783,495
6.30362,468
6.30938,483
6.31517,482
6.32095,205
6.32672,576
6.3325,1422
6.33827,2268
6.34405,2149
6.34982,1961
6.3556,1733
6.36138,1799
6.36715,1719
6.37293,1647
6.3787,1664
6.38448,1577
6.39027,1497
6.39603,1345
6.40182,1400
6.40758,1332
6.41337,1476
6.41915,1401
6.42492,1419
6.4307,1256
6.43647,1407
6.44225,1420
6.44802,1442
6.4538,1265
6.45958,1415
6.46535,1358
6.47113,1334
6.4769,1267
6.48268,1278
6.48847,1249
6.49423,1159
6.50002,1131
6.50578,1249
6.51157,1249
6.51733,1177
6.52312,1066
6.5289,1189
6.53467,1197
6.54045,1108
6.54622,1111
6.552,1300
6.55778,1356
6.56355,1207
6.56933,1143
6.5751,1212
6.58088,1130
6.58667,1065
6.59243,1058
6.59822,990
6.60398,1096
6.60977,1140
6.61553,945
6.62132,1133
6.6271,1165
6.63287,1067
6.63865,1150
6.64442,1191
6.6502,1215
6.65598,1064
6.66175,1072
6.66753,1094
6.6733,1046
6.67908,985
6.68485,1021
6.69063,990
6.69642,1018
6.70218,930
6.70797,956
6.71373,892
6.71952,990
6.7253,1047
6.73107,1155
6.73685,1275
6.74262,1844
6.7484,3121
6.75418,4835
6.75995,6024
6.76573,6453
6.7715,5111
6.77728,3372
6.78305,2212
6.78883,1451
6.79462,1250
6.80038,1456
6.80617,1382
6.81193,1383
6.81772,1202
6.8235,1087
6.82927,1092
6.83505,1011
6.84082,944
6.8466,961
6.85238,947
6.85815,1015
6.86393,973
6.8697,959
6.87548,1068
6.88125,1015
6.88703,995
6.89282,1005
6.89858,1019
6.90437,1078
6.91013,907
6.91592,963
6.9217,964
6.92747,920
6.93325,980
6.93902,1023
6.9448,1012
6.95057,992
6.95635,1016
6.96213,969
6.9679,874
6.97368,930
6.97945,976
6.98523,1057
6.99102,1004
6.99678,936
7.00257,1002
7.00833,1035
7.01412,1014
7.0199,1022
7.02567,1004
7.03145,1233
7.03722,1283
7.043,1204
7.04877,1220
7.05455,1048
7.06033,1088
7.0661,1025
7.07188,949
7.07765,907
7.08343,984
7.08922,940
7.09498,1046
7.10077,1063
7.10653,1023
7.11232,948
7.11808,957
7.12387,1051
7.12965,1023
7.13542,986
7.1412,1087
7.14697,1058
7.15275,1073
7.15853,1010
7.1643,969
7.17008,1098
7.17585,1181
7.18163,1799
7.18742,4319
7.19318,10872
7.19897,21222
7.20473,30995
7.21052,33752
7.21628,29142
7.22207,19376
7.22785,10396
7.23362,5050
7.2394,2425
7.24517,1408
7.25095,1302
7.25673,1072
7.2625,1082
7.26828,1059
7.27405,1018
7.27983,1005
7.28562,1041
7.29138,1012
7.29717,1077
7.30293,979
7.30872,997
7.31448,956
7.32027,986
7.32605,1008
7.33182,979
7.3376,1015
7.34337,931
7.34915,841
7.35493,899
7.3607,1031
7.36648,1034
7.37225,1019
7.37803,1141
7.3838,970
7.38958,1058
7.39537,985
7.40113,1069
7.40692,1048
7.41268,1036
7.41847,1047
7.42425,1041
7.43002,1112
7.4358,1001
7.44157,917
7.44735,925
7.45313,946
7.4589,1028
7.46468,982
7.47045,938
7.47623,942
7.482,950
7.48778,990
7.49357,905
7.49933,1020
7.50512,876
7.51088,937
7.51667,891
7.52245,967
7.52822,1030
7.534,981
7.53977,939
7.54555,853
7.55132,1001
7.5571,986
7.56288,943
7.56865,940
7.57443,958
7.5802,931
7.58598,954
7.59177,929
7.59753,942
7.60332,985
7.60908,778
7.61487,960
7.62065,983
7.62642,842
7.6322,882
7.63797,835
7.64375,948
7.64952,873
7.6553,877
7.66108,842
7.66685,935
7.67263,959
7.6784,1011
7.68418,964
7.68997,965
7.69573,874
7.70152,941
7.70728,1026
7.71307,959
7.71885,1045
7.72462,1066
7.7304,933
7.73617,1069
7.74195,887
7.74772,868
7.7535,982
7.75928,1010
7.76505,1228
7.77083,1296
7.7766,1410
7.78238,1312
7.78817,1184
7.79393,1040
7.79972,913
7.80548,975
7.81127,975
7.81703,938
7.82282,913
7.8286,864
7.83437,967
7.84015,904
7.84592,893
7.8517,873
7.85748,823
7.86325,932
7.86903,982
7.8748,846
7.88058,952
7.88637,849
7.89213,943
7.89792,1015
7.90368,894
7.90947,1003
7.91523,872
7.92102,833
7.9268,835
7.93257,931
7.93835,993
7.94412,881
7.9499,855
7.95568,969
7.96145,914
7.96723,918
7.973,925
7.97878,920
7.98455,855
7.99033,897
7.99612,850
8.00188,976
8.00767,865
8.01343,892
8.01922,949
8.025,892
8.03077,881
8.03655,890
8.04232,857
8.0481,856
8.05388,846
8.05965,878
8.06543,939
8.0712,964
8.07698,841
8.08275,841
8.08853,854
8.09432,845
8.10008,859
8.10587,932
8.11163,916
8.11742,808
8.1232,923
8.12897,851
8.13475,905
8.14052,825
8.1463,877
8.15207,984
8.15785,913
8.16363,858
8.1694,867
8.17518,852
8.18095,822
8.18673,803
8.19252,819
8.19828,844
8.20407,836
8.20983,867
8.21562,881
8.2214,847
8.22717,873
8.23295,810
8.23872,870
8.2445,849
8.25027,872
8.25605,889
8.26183,890
8.2676,939
8.27338,899
8.27915,950
8.28493,833
8.29072,814
8.29648,901
8.30227,831
8.30803,902
8.31382,836
8.3196,901
8.32537,838
8.33115,788
8.33692,869
8.3427,922
8.34847,940
8.35425,878
8.36003,823
8.3658,857
8.37158,850
8.37735,843
8.38313,888
8.38892,927
8.39468,933
8.40047,921
8.40623,931
8.41202,811
8.41778,877
8.42357,1006
8.42935,872
8.43512,874
8.4409,818
8.44667,927
8.45245,1027
8.45823,1226
8.464,1307
8.46978,1260
8.47555,1174
8.48133,1161
8.48712,920
8.49288,944
8.49867,954
8.50443,908
8.51022,963
8.51598,824
8.52177,898
8.52755,955
8.53332,905
8.5391,848
8.54487,932
8.55065,906
8.55643,879
8.5622,861
8.56798,867
8.57375,889
8.57953,944
8.5853,999
8.59108,2055
8.59687,9145
8.60263,30726
8.60842,71414
8.61418,106652
8.61997,105392
8.62575,66691
8.63152,29184
8.6373,9781
8.64307,3012
8.64885,1610
8.65463,1286
8.6604,1220
8.66618,972
8.67195,1037
8.67773,1007
8.6835,1063
8.68928,1038
8.69507,982
8.70083,949
8.70662,940
8.71238,914
8.71817,913
8.72395,835
8.72972,893
8.7355,902
8.74127,895
8.74705,857
8.75282,872
8.7586,858
8.76438,885
8.77015,869
8.77593,889
8.7817,807
8.78748,910
8.79327,858
8.79903,837
8.80482,868
8.81058,885
8.81637,849
8.82215,842
8.82792,808
8.8337,958
8.83947,815
8.84525,929
8.85102,832
8.8568,875
8.86258,827
8.86835,887
8.87413,813
8.8799,801
8.88568,813
8.89147,790
8.89723,798
8.90302,831
8.90878,897
8.91457,845
8.92035,806
8.92612,737
8.9319,787
8.93767,889
8.94345,822
8.94922,797
8.955,820
8.96078,864
8.96655,881
8.97233,850
8.9781,856
8.98388,795
8.98967,770
8.99543,769
9.00122,835
9.00698,770
9.01277,821
9.01853,815
9.02432,816
9.0301,800
9.03587,813
9.04165,846
9.04742,760
9.0532,774
9.05898,775
9.06475,809
9.07053,788
9.0763,777
9.08208,774
9.08787,714
9.09363,714
9.09942,664
9.10518,751
9.11097,742
9.11673,752
9.12252,756
9.1283,750
9.13407,744
9.13985,741
9.14562,798
9.1514,739
9.15718,770
9.16295,777
9.16873,766
9.1745,781
9.18028,732
9.18605,732
9.19183,805
9.19762,763
9.20338,775
9.20917,744
9.21493,783
9.22072,730
9.2265,746
9.23227,745
9.23805,681
9.24382,687
9.2496,822
9.25538,718
9.26115,754
9.26693,764
9.2727,764
9.27848,793
9.28425,733
9.29003,730
9.29582,724
9.30158,698
9.30737,701
9.31313,710
9.31892,716
9.3247,759
9.33047,825
9.33625,801
9.34202,758
9.3478,735
9.35357,700
9.35935,728
9.36513,844
9.3709,770
9.37668,752
9.38245,743
9.38823,779
9.39402,780
9.39978,772
9.40557,812
9.41133,701
9.41712,736
9.4229,710
9.42867,832
9.43445,706
9.44022,787
9.446,838
9.45177,916
9.45755,767
9.46333,783
9.4691,762
9.47488,761
9.48065,786
9.48643,747
9.49222,761
9.49798,779
9.50377,723
9.50953,785
9.51532,748
9.5211,765
9.52687,787
9.53265,785
9.53842,709
9.5442,778
9.54997,812
9.55575,779
9.56153,724
9.5673,822
9.57308,774
9.57885,765
9.58463,776
9.59042,794
9.59618,740
9.60197,780
9.60773,730
9.61352,759
9.61928,798
9.62507,763
9.63085,755
9.63662,765
9.6424,741
9.64817,714
9.65395,737
9.65973,814
9.6655,761
9.67128,757
9.67705,769
9.68283,749
9.68862,774
9.69438,779
9.70017,828
9.70593,776
9.71172,807
9.71748,797
9.72327,764
9.72905,920
9.73482,821
9.7406,883
9.74637,818
9.75215,806
9.75793,809
9.7637,742
9.76948,786
9.77525,792
9.78103,793
9.7868,739
9.79258,814
9.79837,770
9.80413,797
9.80992,708
9.81568,802
9.82147,738
9.82725,722
9.83302,717
9.8388,814
9.84457,745
9.85035,747
9.85613,767
9.8619,833
9.86768,822
9.87345,760
9.87923,751
9.885,753
9.89078,786
9.89657,769
9.90233,749
9.90812,742
9.91388,806
9.91967,867
9.92545,936
9.93122,851
9.937,839
9.94277,806
9.94855,798
9.95433,827
9.9601,786
9.96588,777
9.97165,751
9.97743,777
9.9832,812
9.98898,775
9.99477,783
10.0005,815
10.0063,714
10.0121,874
10.0179,795
10.0237,784
10.0294,775
10.0352,774
10.041,827
10.0468,865
10.0525,857
10.0583,905
10.0641,783
10.0699,831
10.0756,876
10.0814,873
10.0872,801
10.093,772
10.0987,822
10.1045,804
10.1103,775
10.1161,746
10.1219,777
10.1276,776
10.1334,696
10.1392,712
10.145,715
10.1507,777
10.1565,744
10.1623,732
10.1681,754
10.1738,748
10.1796,758
10.1854,913
10.1912,976
10.1969,1146
10.2027,1360
10.2085,1100
10.2143,1029
10.22,1011
10.2258,878
10.2316,836
10.2374,929
10.2432,978
10.2489,954
10.2547,987
10.2605,1055
10.2663,909
10.272,801
10.2778,777
10.2836,808
10.2894,772
10.2951,724
10.3009,788
10.3067,795
10.3125,740
10.3182,722
10.324,747
10.3298,796
10.3356,751
10.3414,784
10.3471,806
10.3529,752
10.3587,794
10.3645,708
10.3702,722
10.376,766
10.3818,742
10.3876,877
10.3933,728
10.3991,737
10.4049,767
10.4107,764
10.4164,735
10.4222,753
10.428,757
10.4338,748
10.4396,834
10.4453,682
10.4511,704
10.4569,778
10.4627,749
10.4684,721
10.4742,745
10.48,770
10.4858,756
10.4915,792
10.4973,700
10.5031,817
10.5089,773
10.5146,720
10.5204,842
10.5262,775
10.532,830
10.5378,755
10.5435,761
10.5493,810
10.5551,770
10.5609,718
10.5666,776
10.5724,768
10.5782,805
10.584,798
10.5897,745
10.5955,821
10.6013,742
10.6071,778
10.6128,801
10.6186,787
10.6244,731
10.6302,705
10.636,726
10.6417,762
10.6475,831
10.6533,721
10.6591,721
10.6648,758
10.6706,747
10.6764,697
10.6822,702
10.6879,723
10.6937,762
10.6995,688
10.7053,810
10.711,809
10.7168,749
10.7226,718
10.7284,759
10.7342,798
10.7399,694
10.7457,661
10.7515,762
10.7573,757
10.763,711
10.7688,729
10.7746,730
10.7804,765
10.7861,786
10.7919,758
10.7977,758
10.8035,754
10.8092,791
10.815,767
10.8208,787
10.8266,744
10.8324,813
10.8381,766
10.8439,743
10.8497,765
10.8555,684
10.8612,724
10.867,792
10.8728,708
10.8786,686
10.8843,764
10.8901,743
10.8959,732
10.9017,695
10.9074,686
10.9132,728
10.919,759
10.9248,724
10.9306,712
10.9363,660
10.9421,751
10.9479,767
10.9537,743
10.9594,739
10.9652,725
10.971,719
10.9768,829
10.9825,735
10.9883,737
10.9941,689
10.9999,741
11.0056,669
11.0114,734
11.0172,711
11.023,714
11.0288,754
11.0345,702
11.0403,731
11.0461,740
11.0519,749
11.0576,682
11.0634,731
11.0692,691
11.075,673
11.0807,648
11.0865,802
11.0923,687
11.0981,729
11.1038,709
11.1096,693
11.1154,654
11.1212,753
11.127,761
11.1327,691
11.1385,640
11.1443,719
11.1501,718
11.1558,765
11.1616,728
11.1674,654
11.1732,732
11.1789,659
11.1847,693
11.1905,669
11.1963,646
11.202,677
11.2078,676
11.2136,691
11.2194,659
11.2252,646
11.2309,702
11.2367,715
11.2425,665
11.2483,681
11.254,678
11.2598,757
11.2656,645
11.2714,657
11.2771,711
11.2829,681
11.2887,667
11.2945,708
11.3002,741
11.306,648
11.3118,715
11.3176,771
11.3234,696
11.3291,735
11.3349,688
11.3407,735
11.3465,722
11.3522,730
11.358,734
11.3638,683
11.3696,771
11.3753,697
11.3811,749
11.3869,796
11.3927,768
11.3984,770
11.4042,754
11.41,733
11.4158,750
11.4216,691
11.4273,718
11.4331,679
11.4389,707
11.4447,750
11.4504,743
11.4562,730
11.462,722
11.4678,721
11.4735,774
11.4793,650
11.4851,735
11.4909,777
11.4966,808
11.5024,751
11.5082,695
11.514,764
11.5197,670
11.5255,677
11.5313,728
11.5371,687
11.5429,739
11.5486,755
11.5544,731
11.5602,787
11.566,686
11.5717,694
11.5775,747
11.5833,788
11.5891,802
11.5948,778
11.6006,788
11.6064,744
11.6122,773
11.6179,758
11.6237,700
11.6295,703
11.6353,762
11.6411,674
11.6468,750
11.6526,718
11.6584,689
11.6642,747
11.6699,722
11.6757,735
11.6815,783
11.6873,764
11.693,701
11.6988,687
11.7046,694
11.7104,729
11.7161,783
11.7219,687
11.7277,692
11.7335,765
11.7393,727
11.745,720
11.7508,724
11.7566,739
11.7624,736
11.7681,694
11.7739,765
11.7797,707
11.7855,647
11.7912,648
11.797,723
11.8028,690
11.8086,740
11.8143,745
11.8201,759
11.8259,706
11.8317,678
11.8375,726
11.8432,690
11.849,710
11.8548,706
11.8606,813
11.8663,747
11.8721,732
11.8779,770
11.8837,775
11.8894,736
11.8952,717
11.901,730
11.9068,740
11.9125,728
11.9183,679
11.9241,748
11.9299,735
11.9357,800
11.9414,657
11.9472,701
11.953,727
11.9588,697
11.9645,764
11.9703,726
11.9761,721
11.9819,724
11.9876,770
11.9934,753
11.9992,760
12.005,764
12.0107,813
12.0165,766
12.0223,687
12.0281,729
12.0339,728
12.0396,750
12.0454,679
12.0512,708
12.057,734
12.0627,661
12.0685,648
12.0743,642
12.0801,676
12.0858,696
12.0916,705
12.0974,727
12.1032,773
12.1089,758
12.1147,696
12.1205,765
12.1263,704
12.1321,718
12.1378,641
12.1436,737
12.1494,726
12.1552,640
12.1609,746
12.1667,649
12.1725,670
12.1783,704
12.184,736
12.1898,758
12.1956,672
12.2014,631
12.2071,690
12.2129,762
12.2187,721
12.2245,699
12.2303,765
12.236,671
12.2418,752
12.2476,683
12.2534,739
12.2591,703
12.2649,651
12.2707,773
12.2765,692
12.2822,716
12.288,679
12.2938,737
12.2996,755
12.3053,733
12.3111,732
12.3169,725
12.3227,753
12.3285,711
12.3342,737
12.34,723
12.3458,696
12.3516,702
12.3573,630
12.3631,648
12.3689,733
12.3747,748
12.3804,723
12.3862,644
12.392,715
12.3978,658
12.4035,704
12.4093,744
12.4151,659
12.4209,694
12.4267,772
12.4324,782
12.4382,759
12.444,839
12.4498,823
12.4555,842
12.4613,793
12.4671,768
12.4729,733
12.4786,666
12.4844,726
12.4902,755
12.496,788
12.5017,675
12.5075,720
12.5133,743
12.5191,744
12.5249,733
12.5306,725
12.5364,665
12.5422,748
12.548,718
12.5537,698
12.5595,765
12.5653,901
12.5711,780
12.5768,768
12.5826,780
12.5884,762
12.5942,692
12.5999,756
12.6057,761
12.6115,645
12.6173,824
12.6231,671
12.6288,805
12.6346,700
12.6404,682
12.6462,749
12.6519,711
12.6577,726
12.6635,694
12.6693,789
12.675,788
12.6808,741
12.6866,748
12.6924,732
12.6981,814
12.7039,803
12.7097,926
12.7155,853
12.7212,876
12.727,875
12.7328,819
12.7386,714
12.7444,773
12.7501,842
12.7559,734
12.7617,728
12.7675,795
12.7732,763
12.779,775
12.7848,791
12.7906,750
12.7963,755
12.8021,820
12.8079,747
12.8137,781
12.8194,763
12.8252,738
12.831,808
12.8368,768
12.8426,962
12.8483,1477
12.8541,2764
12.8599,9332
12.8657,45052
12.8714,169965
12.8772,405997
12.883,646447
12.8888,702084
12.8945,486857
12.9003,217423
12.9061,69605
12.9119,22728
12.9176,10384
12.9234,6975
12.9292,5948
12.935,5148
12.9408,4387
12.9465,3925
12.9523,3709
12.9581,3144
12.9639,2991
12.9696,2789
12.9754,2588
12.9812,2285
12.987,2113
12.9927,2280
12.9985,2166
13.0043,1969
13.0101,1942
13.0158,1856
13.0216,1805
13.0274,1459
13.0332,1576
13.039,1592
13.0447,1453
13.0505,1417
13.0563,1420
13.0621,1361
13.0678,1388
13.0736,1335
13.0794,1330
13.0852,1153
13.0909,1294
13.0967,1256
13.1025,1140
13.1083,1226
13.114,1459
13.1198,1727
13.1256,2067
13.1314,1912
13.1372,1774
13.1429,1378
13.1487,1250
13.1545,1172
13.1603,1082
13.166,1076
13.1718,1079
13.1776,1133
13.1834,1050
13.1891,1140
13.1949,994
13.2007,1138
13.2065,1090
13.2122,1111
13.218,1085
13.2238,1077
13.2296,1077
13.2354,1013
13.2411,971
13.2469,1038
13.2527,1003
13.2585,1054
13.2642,1051
13.27,979
13.2758,1079
13.2816,1033
13.2873,1001
13.2931,1012
13.2989,975
13.3047,958
13.3104,933
13.3162,925
13.322,919
13.3278,1020
13.3336,952
13.3393,974
13.3451,988
13.3509,917
13.3567,983
13.3624,985
13.3682,1025
13.374,964
13.3798,1016
13.3855,953
13.3913,897
13.3971,941
13.4029,984
13.4086,1000
13.4144,1003
13.4202,977
13.426,985
13.4318,1005
13.4375,1011
13.4433,1008
13.4491,1035
13.4549,921
13.4606,1013
13.4664,855
13.4722,927
13.478,941
13.4837,980
13.4895,1008
13.4953,960
13.5011,895
13.5068,965
13.5126,994
13.5184,959
13.5242,938
13.53,864
13.5357,974
13.5415,1048
13.5473,907
13.5531,896
13.5588,990
13.5646,937
13.5704,940
13.5762,939
13.5819,970
13.5877,1009
13.5935,1010
13.5993,904
13.605,1015
13.6108,924
13.6166,935
13.6224,890
13.6282,894
13.6339,911
13.6397,932
13.6455,966
13.6513,964
13.657,994
13.6628,916
13.6686,952
13.6744,958
13.6801,881
13.6859,949
13.6917,909
13.6975,898
13.7032,909
13.709,923
13.7148,870
13.7206,922
13.7264,865
13.7321,899
13.7379,911
13.7437,909
13.7495,951
13.7552,908
13.761,918
13.7668,950
13.7726,1041
13.7783,1025
13.7841,884
13.7899,919
13.7957,928
13.8014,900
13.8072,913
13.813,1001
13.8188,942
13.8246,985
13.8303,921
13.8361,998
13.8419,958
13.8477,964
13.8534,905
13.8592,844
13.865,997
13.8708,962
13.8765,922
13.8823,911
13.8881,1004
13.8939,1028
13.8996,1005
13.9054,959
13.9112,883
13.917,888
13.9228,1006
13.9285,945
13.9343,982
13.9401,1047
13.9459,1017
13.9516,984
13.9574,962
13.9632,954
13.969,1062
13.9747,952
13.9805,1068
13.9863,980
13.9921,980
13.9978,907
14.0036,951
14.0094,948
14.0152,894
14.0209,984
14.0267,957
14.0325,955
14.0383,943
14.0441,951
14.0498,1010
14.0556,940
14.0614,877
14.0672,894
14.0729,1000
14.0787,955
14.0845,922
14.0903,908
14.096,1038
14.1018,996
14.1076,979
14.1134,996
14.1191,957
14.1249,1072
14.1307,1002
14.1365,969
14.1423,1039
14.148,899
14.1538,959
14.1596,991
14.1654,949
14.1711,991
14.1769,979
14.1827,953
14.1885,1036
14.1942,987
14.2,898
14.2058,932
14.2116,945
14.2173,894
14.2231,979
14.2289,903
14.2347,854
14.2405,979
14.2462,953
14.252,994
14.2578,973
14.2636,1071
14.2693,1044
14.2751,960
14.2809,923
14.2867,1030
14.2924,984
14.2982,965
14.304,952
14.3098,898
14.3155,988
14.3213,956
14.3271,953
14.3329,1034
14.3387,932
14.3444,976
14.3502,1044
14.356,1001
14.3618,979
14.3675,1051
14.3733,1024
14.3791,1060
14.3849,981
14.3906,1074
14.3964,999
14.4022,902
14.408,971
14.4137,1039
14.4195,893
14.4253,1057
14.4311,1011
14.4369,910
14.4426,1096
14.4484,971
14.4542,897
14.46,1001
14.4657,944
14.4715,954
14.4773,970
14.4831,1013
14.4888,1062
14.4946,1010
14.5004,986
14.5062,986
14.5119,951
14.5177,1026
14.5235,944
14.5293,996
14.5351,1053
14.5408,1007
14.5466,988
14.5524,1037
14.5582,1069
14.5639,1083
14.5697,956
14.5755,948
14.5813,1015
14.587,957
14.5928,1014
14.5986,939
14.6044,927
14.6101,1105
14.6159,951
14.6217,984
14.6275,1040
14.6333,1029
14.639,903
14.6448,920
14.6506,953
14.6564,977
14.6621,990
14.6679,927
14.6737,972
14.6795,993
14.6852,983
14.691,1047
14.6968,996
14.7026,976
14.7083,930
14.7141,1014
14.7199,973
14.7257,932
14.7315,1036
14.7372,1053
14.743,1031
14.7488,1073
14.7546,978
14.7603,905
14.7661,952
14.7719,991
14.7777,1056
14.7834,944
14.7892,855
14.795,974
14.8008,1065
14.8065,1026
14.8123,1020
14.8181,986
14.8239,1108
14.8297,900
14.8354,936
14.8412,1024
14.847,999
14.8528,1013
14.8585,1159
14.8643,1449
14.8701,1986
14.8759,2244
14.8816,2216
14.8874,2098
14.8932,1662
14.899,1296
14.9047,1104
14.9105,1077
14.9163,1069
14.9221,1051
14.9279,1134
14.9336,1093
14.9394,1154
14.9452,1123
14.951,1172
14.9567,1043
14.9625,1092
14.9683,1009
14.9741,932
14.9798,1040
14.9856,1020
14.9914,1038
14.9972,1148
15.0029,1146
15.0087,1111
15.0145,1078
15.0203,1116
15.0261,1055
15.0318,1248
15.0376,1433
15.0434,1751
15.0492,1750
15.0549,1702
15.0607,1555
15.0665,1494
15.0723,1464
15.078,1526
15.0838,1527
15.0896,1623
15.0954,1642
15.1011,1475
15.1069,1329
15.1127,1069
15.1185,1156
15.1243,1092
15.13,980
15.1358,1076
15.1416,1091
15.1474,1046
15.1531,973
15.1589,1085
15.1647,1098
15.1705,1144
15.1762,1044
15.182,1127
15.1878,1099
15.1936,1150
15.1993,1159
15.2051,1135
15.2109,1249
15.2167,1159
15.2224,1221
15.2282,1212
15.234,1249
15.2398,1246
15.2456,2035
15.2513,5849
15.2571,15862
15.2629,48935
15.2687,109996
15.2744,166067
15.2802,177584
15.286,136086
15.2918,78270
15.2975,32556
15.3033,12006
15.3091,4129
15.3149,2284
15.3206,1770
15.3264,1607
15.3322,1538
15.338,1541
15.3438,1361
15.3495,1378
15.3553,1374
15.3611,1365
15.3669,1355
15.3726,1472
15.3784,1297
15.3842,1243
15.39,1353
15.3957,1298
15.4015,1173
15.4073,1447
15.4131,1324
15.4188,1224
15.4246,1234
15.4304,1273
15.4362,1252
15.442,1314
15.4477,1258
15.4535,1111
15.4593,1172
15.4651,1173
15.4708,1258
15.4766,1122
15.4824,1233
15.4882,1286
15.4939,1228
15.4997,1127
15.5055,1221
15.5113,1249
15.517,1212
15.5228,1238
15.5286,1209
15.5344,1171
15.5402,1149
15.5459,1088
15.5517,1285
15.5575,1204
15.5633,1179
15.569,1258
15.5748,1197
15.5806,1165
15.5864,1054
15.5921,1165
15.5979,1066
15.6037,1194
15.6095,1070
15.6152,1125
15.621,1174
15.6268,1178
15.6326,1057
15.6384,1195
15.6441,1236
15.6499,1255
15.6557,1172
15.6615,1147
15.6672,1057
15.673,1099
15.6788,1177
15.6846,1132
15.6903,1155
15.6961,1096
15.7019,1160
15.7077,1068
15.7134,1075
15.7192,1151
15.725,1123
15.7308,1286
15.7366,1111
15.7423,1032
15.7481,1209
15.7539,1138
15.7597,1123
15.7654,1088
15.7712,1196
15.777,1215
15.7828,965
15.7885,1101
15.7943,1092
15.8001,1223
15.8059,1169
15.8116,1171
15.8174,1120
15.8232,1043
15.829,1133
15.8348,1216
15.8405,1122
15.8463,1072
15.8521,1160
15.8579,1034
15.8636,1150
15.8694,939
15.8752,1089
15.881,1099
15.8867,1138
15.8925,1235
15.8983,1051
15.9041,1127
15.9098,1072
15.9156,1021
15.9214,1165
15.9272,1060
15.933,1109
15.9387,1144
15.9445,1059
15.9503,1053
15.9561,1142
15.9618,1126
15.9676,1123
15.9734,1206
15.9792,1063
15.9849,1094
15.9907,1109
15.9965,1083
16.0023,1067
16.008,1100
16.0138,1102
16.0196,1007
16.0254,1106
16.0312,1045
16.0369,1004
16.0427,1167
16.0485,1066
16.0543,1023
16.06,1061
16.0658,1000
16.0716,1101
16.0773,946
16.0831,1100
16.0889,1101
16.0947,1050
16.1005,986
16.1062,1068
16.112,1090
16.1178,1099
16.1236,1106
16.1293,956
16.1351,1130
16.1409,1032
16.1467,1102
16.1525,1144
16.1582,1101
16.164,1036
16.1698,1134
16.1756,1190
16.1813,998
16.1871,1099
16.1929,1057
16.1987,1045
16.2044,1057
16.2102,1127
16.216,1124
16.2218,1070
16.2276,1099
16.2333,1042
16.2391,1040
16.2449,1034
16.2507,1089
16.2564,1069
16.2622,1005
16.268,1069
16.2738,1059
16.2795,1023
16.2853,1114
16.2911,1062
16.2969,1146
16.3026,1094
16.3084,1004
16.3142,1067
16.32,1115
16.3257,1057
16.3315,1150
16.3373,1176
16.3431,1057
16.3488,1128
16.3546,1092
16.3604,1048
16.3662,1091
16.3719,1076
16.3777,1109
16.3835,1111
16.3893,1135
16.3951,1081
16.4008,1048
16.4066,974
16.4124,1114
16.4182,1036
16.4239,1079
16.4297,1065
16.4355,994
16.4413,950
16.4471,1010
16.4528,1050
16.4586,1155
16.4644,1042
16.4702,1134
16.4759,1052
16.4817,932
16.4875,1123
16.4933,1098
16.499,1079
16.5048,1089
16.5106,987
16.5164,1117
16.5221,1103
16.5279,981
16.5337,1050
16.5395,1035
16.5452,1050
16.551,1117
16.5568,964
16.5626,993
16.5683,1106
16.5741,1068
16.5799,1079
16.5857,1072
16.5915,1103
16.5972,1033
16.603,1170
16.6088,982
16.6146,1100
16.6203,957
16.6261,1057
16.6319,1047
16.6377,970
16.6435,1015
16.6492,1074
16.655,971
16.6608,970
16.6666,1089
16.6723,1029
16.6781,908
16.6839,1032
16.6897,1093
16.6954,1089
16.7012,1096
16.707,936
16.7128,1141
16.7185,1046
16.7243,1036
16.7301,1007
16.7359,1143
16.7417,1035
16.7474,987
16.7532,1046
16.759,1062
16.7647,1013
16.7705,934
16.7763,1055
16.7821,995
16.7878,1005
16.7936,1039
16.7994,1051
16.8052,1065
16.811,882
16.8167,1001
16.8225,948
16.8283,976
16.8341,1014
16.8398,1085
16.8456,1027
16.8514,959
16.8572,984
16.863,1093
16.8687,1009
16.8745,1062
16.8803,1042
16.8861,1004
16.8918,1079
16.8976,1045
16.9034,1068
16.9092,1065
16.9149,991
16.9207,1094
16.9265,1112
16.9323,1132
16.9381,1000
16.9438,915
16.9496,1126
16.9554,1088
16.9612,940
16.9669,1160
16.9727,1108
16.9785,1020
16.9842,1062
16.99,1136
16.9958,1076
17.0016,1145
17.0074,1159
17.0131,1176
17.0189,1063
17.0247,1001
17.0305,1058
17.0362,1052
17.042,1007
17.0478,1068
17.0536,1057
17.0593,1029
17.0651,1064
17.0709,1173
17.0767,975
17.0825,1065
17.0882,1048
17.094,1053
17.0998,1048
17.1056,1030
17.1113,967
17.1171,1007
17.1229,1026
17.1287,1062
17.1345,969
17.1402,1023
17.146,1074
17.1518,1114
17.1576,1078
17.1633,996
17.1691,922
17.1749,1129
17.1807,1059
17.1864,1036
17.1922,1023
17.198,1068
17.2038,1092
17.2095,1059
17.2153,1268
17.2211,941
17.2269,1010
17.2327,1042
17.2384,1082
17.2442,1171
17.25,1187
17.2558,1002
17.2615,992
17.2673,1100
17.2731,1113
17.2788,1073
17.2846,1033
17.2904,1081
17.2962,1086
17.302,1093
17.3077,1117
17.3135,965
17.3193,1013
17.3251,1024
17.3309,1038
17.3366,987
17.3424,1047
17.3482,1048
17.354,964
17.3597,996
17.3655,1001
17.3713,952
17.3771,1000
17.3828,1035
17.3886,1058
17.3944,1016
17.4002,1054
17.4059,1089
17.4117,1142
17.4175,1083
17.4233,1003
17.4291,1059
17.4348,1129
17.4406,1062
17.4464,1088
17.4522,1059
17.4579,1034
17.4637,1065
17.4695,1049
17.4752,908
17.481,1081
17.4868,1108
17.4926,1033
17.4984,998
17.5041,1003
17.5099,924
17.5157,1031
17.5215,1038
17.5273,1061
17.533,992
17.5388,997
17.5446,937
17.5504,1007
17.5561,1000
17.5619,1066
17.5677,1029
17.5735,1057
17.5792,1060
17.585,1113
17.5908,1017
17.5966,1035
17.6023,982
17.6081,992
17.6139,1041
17.6197,1010
17.6255,954
17.6312,1049
17.637,1015
17.6428,1108
17.6486,987
17.6543,1018
17.6601,1031
17.6659,989
17.6717,1042
17.6774,1081
17.6832,956
17.689,1002
17.6948,1041
17.7005,1037
17.7063,1069
17.7121,1036
17.7179,1036
17.7236,1129
17.7294,1121
17.7352,1071
17.741,1157
17.7468,1116
17.7525,1059
17.7583,1039
17.7641,1124
17.7699,1014
17.7756,985
17.7814,1075
17.7872,1069
17.793,1026
17.7987,1048
17.8045,1078
17.8103,1083
17.8161,1077
17.8218,1079
17.8276,1171
17.8334,962
17.8392,995
17.845,1090
17.8507,990
17.8565,1015
17.8623,982
17.8681,1136
17.8738,933
17.8796,1059
17.8854,1064
17.8912,1070
17.8969,1083
17.9027,1038
17.9085,995
17.9143,1080
17.92,1086
17.9258,1074
17.9316,937
17.9374,901
17.9431,1004
17.9489,1123
17.9547,982
17.9605,1107
17.9663,1062
17.972,1123
17.9778,1009
17.9836,1042
17.9894,1033
17.9951,1005
18.0009,968
18.0067,947
18.0125,970
18.0182,930
18.024,1055
18.0298,975
18.0356,1022
18.0414,996
18.0471,1016
18.0529,975
18.0587,1101
18.0645,1024
18.0702,1011
18.076,997
18.0818,1047
18.0876,1004
18.0933,955
18.0991,1063
18.1049,973
18.1107,1086
18.1164,922
18.1222,909
18.128,941
18.1338,1020
18.1396,1006
18.1453,1074
18.1511,988
18.1569,1029
18.1626,939
18.1684,1021
18.1742,1071
18.18,1043
18.1858,1010
18.1915,996
18.1973,1105
18.2031,1077
18.2089,1061
18.2146,940
18.2204,1027
18.2262,989
18.232,1128
18.2378,1107
18.2435,948
18.2493,1201
18.2551,1077
18.2609,1026
18.2666,1119
18.2724,1080
18.2782,1033
18.284,996
18.2897,968
18.2955,981
18.3013,1019
18.3071,1107
18.3128,1048
18.3186,1012
18.3244,1083
18.3302,963
18.336,950
18.3417,1021
18.3475,946
18.3533,992
18.3591,1038
18.3648,1072
18.3706,990
18.3764,1103
18.3821,1079
18.3879,1038
18.3937,1018
18.3995,922
18.4053,1091
18.411,951
18.4168,994
18.4226,1034
18.4284,959
18.4342,989
18.4399,960
18.4457,1004
18.4515,893
18.4573,959
18.463,1024
18.4688,1115
18.4746,1138
18.4804,1053
18.4861,960
18.4919,1048
18.4977,1013
18.5035,1003
18.5092,976
18.515,881
18.5208,1091
18.5266,995
18.5324,1030
18.5381,1153
18.5439,1018
18.5497,864
18.5555,1061
18.5612,937
18.567,1044
18.5728,963
18.5786,1014
18.5843,1004
18.5901,999
18.5959,1026
18.6017,1001
18.6074,1075
18.6132,1098
18.619,965
18.6248,1011
18.6305,1040
18.6363,988
18.6421,1011
18.6479,1005
18.6537,1091
18.6594,1012
18.6652,932
18.671,961
18.6768,981
18.6825,1043
18.6883,997
18.6941,1045
18.6999,1040
18.7056,1040
18.7114,1066
18.7172,1038
18.723,1049
18.7288,1140
18.7345,971
18.7403,1008
18.7461,1066
18.7519,1050
18.7576,1117
18.7634,1009
18.7692,994
18.775,1015
18.7807,1086
18.7865,1084
18.7923,966
18.7981,990
18.8038,1014
18.8096,1091
18.8154,1041
18.8212,983
18.827,980
18.8327,1115
18.8385,1060
18.8443,1010
18.8501,1026
18.8558,1077
18.8616,1018
18.8674,1009
18.8732,1028
18.8789,934
18.8847,1101
18.8905,980
18.8963,1010
18.902,981
18.9078,954
18.9136,921
18.9194,923
18.9252,885
18.9309,1101
18.9367,950
18.9425,901
18.9483,1009
18.954,1056
18.9598,1134
18.9656,1024
18.9714,1107
18.9771,954
18.9829,1128
18.9887,1050
18.9945,1061
19.0002,1047
19.006,1030
19.0118,949
19.0176,1008
19.0233,1032
19.0291,1059
19.0349,999
19.0407,903
19.0465,948
19.0522,1022
19.058,991
19.0638,1011
19.0696,1001
19.0753,943
19.0811,1019
19.0869,1019
19.0927,1050
19.0984,1230
19.1042,1067
19.11,907
19.1158,1131
19.1215,1035
19.1273,1092
19.1331,994
19.1389,1102
19.1447,946
19.1504,1084
19.1562,1072
19.162,1079
19.1678,938
19.1735,928
19.1793,969
19.1851,1047
19.1909,993
19.1966,1051
19.2024,1054
19.2082,1045
19.214,1066
19.2197,987
19.2255,1006
19.2313,1099
19.2371,1071
19.2429,978
19.2486,1060
19.2544,1047
19.2602,1030
19.266,1020
19.2717,1098
19.2775,983
19.2833,1111
19.2891,1043
19.2948,1046
19.3006,1026
19.3064,1081
19.3122,1082
19.3179,982
19.3237,1029
19.3295,997
19.3353,1067
19.341,923
19.3468,964
19.3526,987
19.3584,1068
19.3642,1023
19.3699,961
19.3757,1046
19.3815,1070
19.3873,990
19.393,1163
19.3988,1128
19.4046,1087
19.4104,1026
19.4161,1017
19.4219,973
19.4277,967
19.4335,941
19.4393,1087
19.445,1213
19.4508,1054
19.4566,1042
19.4624,1078
19.4681,1098
19.4739,1002
19.4797,1019
19.4855,979
19.4912,1063
19.497,1046
19.5028,1009
19.5086,991
19.5143,942
19.5201,968
19.5259,1026
19.5317,976
19.5375,1007
19.5432,1051
19.549,1111
19.5548,1043
19.5605,934
19.5663,1006
19.5721,1085
19.5779,1067
19.5837,990
19.5894,992
19.5952,836
19.601,1031
19.6068,1016
19.6125,990
19.6183,949
19.6241,1065
19.6299,961
19.6357,948
19.6414,936
19.6472,1019
19.653,990
19.6588,887
19.6645,999
19.6703,978
19.6761,1016
19.6819,1039
19.6876,982
19.6934,1051
19.6992,1047
19.705,1003
19.7107,1080
19.7165,1025
19.7223,915
19.7281,1026
19.7339,1102
19.7396,1051
19.7454,1038
19.7512,1041
19.757,917
19.7627,989
19.7685,989
19.7743,1041
19.78,970
19.7858,1033
19.7916,1030
19.7974,946
19.8032,1002
19.8089,1015
19.8147,1008
19.8205,1052
19.8263,1041
19.8321,993
19.8378,893
19.8436,1038
19.8494,1089
19.8552,1052
19.8609,1057
19.8667,963
19.8725,971
19.8783,1015
19.884,1055
19.8898,951
19.8956,1046
19.9014,990
19.9071,1004
19.9129,1006
19.9187,987
19.9245,1067
19.9303,1026
19.936,973
19.9418,945
19.9476,1029
19.9534,1025
19.9591,966
19.9649,878
19.9707,1039
19.9765,1054
19.9822,1113
19.988,976
19.9938,1042
19.9996,1003
20.0053,1120
20.0111,911
20.0169,1074
20.0227,1081
20.0284,964
20.0342,985
20.04,1015
20.0458,1097
20.0516,1023
20.0573,982
20.0631,1038
20.0689,1012
20.0747,1049
20.0804,1043
20.0862,1002
20.092,1025
20.0978,1027
20.1035,1029
20.1093,966
20.1151,964
20.1209,914
20.1267,998
20.1324,1044
20.1382,1058
20.144,1029
20.1498,986
20.1555,959
20.1613,931
20.1671,1050
20.1729,946
20.1786,1011
20.1844,973
20.1902,1049
20.196,945
20.2017,958
20.2075,1016
20.2133,983
20.2191,1009
20.2248,1106
20.2306,1007
20.2364,935
20.2422,1058
20.2479,1032
20.2537,1015
20.2595,972
20.2653,989
20.2711,1005
20.2768,956
20.2826,1041
20.2884,961
20.2942,1006
20.2999,1013
20.3057,972
20.3115,1020
20.3173,1052
20.323,1001
20.3288,1029
20.3346,1014
20.3404,1012
20.3462,989
20.3519,964
20.3577,1067
20.3635,1148
20.3693,1029
20.375,1092
20.3808,1152
20.3866,1139
20.3924,1042
20.3981,1009
20.4039,1093
20.4097,1088
20.4155,1041
20.4212,1039
20.427,977
20.4328,1011
20.4386,1041
20.4444,1058
20.4501,1131
20.4559,1147
20.4617,1170
20.4674,1187
20.4732,1142
20.479,1124
20.4848,1065
20.4906,1209
20.4963,1153
20.5021,1048
20.5079,1049
20.5137,1025
20.5194,1260
20.5252,1148
20.531,1148
20.5368,1004
20.5426,1182
20.5483,1128
20.5541,1160
20.5599,1184
20.5657,1117
20.5714,1122
20.5772,1190
20.583,1033
20.5888,1123
20.5945,1072
20.6003,1153
20.6061,1172
20.6119,1175
20.6176,1156
20.6234,1130
20.6292,1090
20.635,1159
20.6408,1123
20.6465,1106
20.6523,1175
20.6581,1166
20.6639,1047
20.6696,1255
20.6754,1143
20.6812,1178
20.687,1170
20.6927,1173
20.6985,1104
20.7043,1130
20.7101,1187
20.7158,1207
20.7216,1162
20.7274,1215
20.7332,1198
20.739,1161
20.7447,1140
20.7505,1193
20.7563,1229
20.7621,1311
20.7678,1116
20.7736,1301
20.7794,1309
20.7852,1237
20.7909,1266
20.7967,1273
20.8025,1342
20.8083,1298
20.814,1097
20.8198,1188
20.8256,1242
20.8314,1312
20.8372,1376
20.8429,1347
20.8487,1239
20.8545,1283
20.8603,1391
20.866,1213
20.8718,1316
20.8776,1302
20.8834,1319
20.8891,1388
20.8949,1237
20.9007,1378
20.9065,1319
20.9122,1175
20.918,1281
20.9238,1207
20.9296,1133
20.9354,1202
20.9411,1421
20.9469,1358
20.9527,1350
20.9585,1258
20.9642,1295
20.97,1326
20.9758,1334
20.9816,1300
20.9873,1311
20.9931,1273
20.9989,1347
21.0047,1403
21.0104,1362
21.0162,1339
21.022,1501
21.0278,1419
21.0336,1423
21.0393,1453
21.0451,1437
21.0509,1420
21.0567,1407
21.0624,1548
21.0682,1487
21.074,1521
21.0798,1518
21.0855,1423
21.0913,1381
21.0971,1473
21.1029,1658
21.1086,1424
21.1144,1434
21.1202,1603
21.126,1486
21.1318,1541
21.1375,1422
21.1433,1479
21.1491,1565
21.1549,1474
21.1606,1448
21.1664,1611
21.1722,1473
21.178,1485
21.1837,1568
21.1895,1553
21.1953,1530
21.2011,1558
21.2068,1719
21.2126,1580
21.2184,1695
21.2242,1712
21.23,1557
21.2357,1537
21.2415,1804
21.2473,1677
21.2531,1597
21.2588,1686
21.2646,1619
21.2704,1830
21.2762,1657
21.2819,1809
21.2877,1789
21.2935,1807
21.2993,1690
21.305,1870
21.3108,1593
21.3166,1660
21.3224,1887
21.3282,1812
21.3339,1879
21.3397,1744
21.3455,1848
21.3513,1809
21.357,1817
21.3628,1682
21.3686,1834
21.3744,1908
21.3801,1944
21.3859,2088
21.3917,1914
21.3975,1808
21.4032,1826
21.409,1896
21.4148,1973
21.4206,1942
21.4263,1909
21.4321,1980
21.4379,1880
21.4437,2059
21.4495,1910
21.4552,2020
21.461,1945
21.4668,2082
21.4726,1982
21.4783,2213
21.4841,2032
21.4899,2016
21.4957,2105
21.5014,2289
21.5072,2159
21.513,2028
21.5188,1974
21.5245,2175
21.5303,2121
21.5361,2381
21.5419,2292
21.5477,2205
21.5534,2119
21.5592,2118
21.565,2141
21.5708,2283
21.5765,2284
21.5823,2323
21.5881,2329
21.5939,2575
21.5996,2452
21.6054,2535
21.6112,2277
21.617,2350
21.6227,2598
21.6285,2311
21.6343,2346
21.6401,2321
21.6458,2609
21.6516,2424
21.6574,2364
21.6632,2616
21.669,2687
21.6747,2697
21.6805,2492
21.6863,2695
21.6921,2580
21.6978,2438
21.7036,2732
21.7094,2551
21.7152,2792
21.7209,2735
21.7267,2592
21.7325,2693
21.7383,2617
21.7441,2605
21.7498,2686
21.7556,2757
21.7614,2847
21.7672,2863
21.7729,2942
21.7787,2877
21.7845,2687
21.7903,2872
21.796,2923
21.8018,2839
21.8076,2592
21.8134,2838
21.8191,2714
21.8249,2865
21.8307,2828
21.8365,3098
21.8423,2827
21.848,3064
21.8538,2906
21.8596,3052
21.8653,2979
21.8711,2840
21.8769,2871
21.8827,2927
21.8885,2886
21.8942,3096
21.9,2920
21.9058,3024
21.9116,3271
21.9173,3223
21.9231,3299
21.9289,3332
21.9347,3269
21.9405,3193
21.9462,3222
21.952,3308
21.9578,3366
21.9636,3177
21.9693,3188
21.9751,2991
21.9809,3102
21.9867,3303
21.9924,3199
21.9982,3221
22.004,3124
22.0098,3263
22.0155,3522
22.0213,3445
22.0271,3308
22.0329,3434
22.0387,3385
22.0444,3387
22.0502,3529
22.056,3463
22.0618,3446
22.0675,3549
22.0733,3387
22.0791,3558
22.0848,3593
22.0906,3295
22.0964,3475
22.1022,3631
22.108,3550
22.1137,3360
22.1195,3636
22.1253,3546
22.1311,3592
22.1369,3505
22.1426,3530
22.1484,3556
22.1542,3605
22.16,3800
22.1657,3605
22.1715,4070
22.1773,3720
22.1831,3709
22.1888,3646
22.1946,3722
22.2004,3590
22.2062,3860
22.2119,3797
22.2177,3802
22.2235,3754
22.2293,3928
22.2351,3800
22.2408,3690
22.2466,3599
22.2524,3881
22.2582,4137
22.2639,3762
22.2697,3919
22.2755,3707
22.2813,3837
22.287,4144
22.2928,3821
22.2986,4016
22.3044,3946
22.3101,3990
22.3159,3879
22.3217,4066
22.3275,3976
22.3333,3921
22.339,4040
22.3448,4388
22.3506,3970
22.3564,3905
22.3621,3995
22.3679,4040
22.3737,3863
22.3795,3838
22.3852,4217
22.391,3970
22.3968,3885
22.4026,4120
22.4083,4023
22.4141,4034
22.4199,4178
22.4257,4446
22.4315,4058
22.4372,4002
22.443,4353
22.4488,4213
22.4546,4287
22.4603,4029
22.4661,4204
22.4719,4107
22.4777,4238
22.4834,4116
22.4892,4311
22.495,4348
22.5008,4502
22.5065,4125
22.5123,4357
22.5181,4222
22.5239,4168
22.5297,4482
22.5354,4424
22.5412,4390
22.547,4477
22.5528,4710
22.5585,4459
22.5643,4444
22.5701,4282
22.5759,4323
22.5816,4662
22.5874,4705
22.5932,4645
22.599,4574
22.6047,4454
22.6105,4533
22.6163,4644
22.6221,4383
22.6279,4669
22.6336,4467
22.6394,4541
22.6452,4759
22.651,4529
22.6567,4711
22.6625,4692
22.6683,4644
22.6741,4690
22.6798,4780
22.6856,4468
22.6914,4669
22.6972,4526
22.7029,4396
22.7087,4667
22.7145,4606
22.7203,4884
22.726,4881
22.7318,4460
22.7376,4752
22.7434,4848
22.7492,4656
22.7549,4499
22.7607,5029
22.7665,4838
22.7723,5021
22.778,4990
22.7838,4923
22.7896,4935
22.7954,5033
22.8011,4634
22.8069,4884
22.8127,5194
22.8185,4560
22.8242,5030
22.83,4831
22.8358,5037
22.8416,4866
22.8474,5026
22.8531,5028
22.8589,5252
22.8647,4999
22.8705,5060
22.8762,5070
22.882,5127
22.8878,4971
22.8936,4818
22.8993,4897
22.9051,5017
22.9109,5190
22.9167,5079
22.9224,4974
22.9282,4837
22.934,5296
22.9398,5342
22.9456,4961
22.9513,4976
22.9571,4969
22.9629,5385
22.9687,5131
22.9744,5153
22.9802,5052
22.986,4809
22.9918,5291
22.9975,5177
23.0033,5496
23.0091,5041
23.0149,5298
23.0206,5236
23.0264,5128
23.0322,5439
23.038,5291
23.0438,5307
23.0495,5240
23.0553,5086
23.0611,5240
23.0669,5106
23.0726,5221
23.0784,5242
23.0842,5390
23.09,5254
23.0957,5198
23.1015,5276
23.1073,5232
23.1131,5028
23.1188,5131
23.1246,5740
23.1304,5423
23.1362,5554
23.142,5443
23.1477,5697
23.1535,5574
23.1593,5081
23.1651,5667
23.1708,5332
23.1766,4972
23.1824,5278
23.1882,5302
23.1939,5602
23.1997,5474
23.2055,5442
23.2113,5336
23.217,5604
23.2228,5316
23.2286,5492
23.2344,5734
23.2402,5632
23.2459,5534
23.2517,5625
23.2575,5857
23.2633,5610
23.269,5659
23.2748,5426
23.2806,5776
23.2864,5446
23.2921,5452
23.2979,5692
23.3037,5344
23.3095,5615
23.3152,5920
23.321,5390
23.3268,5662
23.3326,5576
23.3384,5418
23.3441,5909
23.3499,5794
23.3557,5440
23.3615,5813
23.3672,5970
23.373,5666
23.3788,5563
23.3846,5851
23.3903,5540
23.3961,5375
23.4019,5882
23.4077,5604
23.4134,5571
23.4192,5912
23.425,5789
23.4308,5687
23.4366,5782
23.4423,5589
23.4481,5649
23.4539,6168
23.4597,6069
23.4654,5764
23.4712,5694
23.477,5815
23.4828,6092
23.4885,5646
23.4943,6007
23.5001,6000
23.5059,5693
23.5116,5562
23.5174,5659
23.5232,5841
23.529,5773
23.5348,5935
23.5405,5874
23.5463,6142
23.5521,5988
23.5579,5773
23.5636,5894
23.5694,5617
23.5752,6077
23.581,5747
23.5867,5861
23.5925,5922
23.5983,5965
23.6041,6186
23.6098,5873
23.6156,5613
23.6214,5699
23.6272,5692
23.633,6106
23.6387,6025
23.6445,6169
23.6503,5657
23.6561,6170
23.6618,5966
23.6676,5829
23.6734,5910
23.6792,5661
23.6849,5794
23.6907,6025
23.6965,5890
23.7023,6073
23.708,5501
23.7138,6069
23.7196,5876
23.7254,5652
23.7312,5324
23.7369,5621
23.7427,5983
23.7485,5847
23.7543,5901
23.76,5715
23.7658,6174
23.7716,5913
23.7774,5811
23.7831,5849
23.7889,5773
23.7947,5991
23.8005,5655
23.8062,5827
23.812,5963
23.8178,5862
23.8236,5947
23.8294,5989
23.8351,5622
23.8409,5900
23.8467,5858
23.8525,5648
23.8582,5813
23.864,5589
23.8698,5985
23.8756,5934
23.8813,5707
23.8871,6170
23.8929,5999
23.8987,6172
23.9044,6079
23.9102,6119
23.916,6077
23.9218,6076
23.9275,5803
23.9333,5901
23.9391,6035
23.9449,5920
23.9507,5622
23.9564,5687
23.9622,6026
23.968,5731
23.9738,5929
23.9795,5984
23.9853,5566
23.9911,6012
23.9969,5855
24.0026,5849
24.0084,5741
24.0142,6116
24.02,6057
24.0257,6104
24.0315,6249
24.0373,5984
24.0431,6040
24.0489,5755
24.0546,6128
24.0604,6019
24.0662,6200
24.072,5971
24.0777,5673
24.0835,5681
24.0893,5667
24.0951,5678
24.1008,5990
24.1066,5948
24.1124,6053
24.1182,5964
24.1239,5775
24.1297,5693
24.1355,6182
24.1413,6011
24.1471,6019
24.1528,5853
24.1586,5929
24.1644,5713
24.1702,5786
24.1759,5906
24.1817,5890
24.1875,6178
24.1933,6338
24.199,5669
24.2048,6115
24.2106,5831
24.2164,5710
24.2221,5824
24.2279,5745
24.2337,5744
24.2395,6243
24.2453,6444
24.251,6253
24.2568,6142
24.2626,5849
24.2684,5999
24.2741,6181
24.2799,5942
24.2857,6196
24.2915,6075
24.2972,5861
24.303,5615
24.3088,6251
24.3146,5704
24.3203,6291
24.3261,5957
24.3319,6083
24.3377,5950
24.3435,5889
24.3492,5964
24.355,6036
24.3608,5800
24.3666,6166
24.3723,5825
24.3781,6165
24.3839,5990
24.3897,6029
24.3954,6263
24.4012,5742
24.407,6004
24.4128,6005
24.4185,5969
24.4243,5839
24.4301,5849
24.4359,5991
24.4417,6048
24.4474,6027
24.4532,6233
24.459,6172
24.4648,6150
24.4705,5864
24.4763,6076
24.4821,6030
24.4879,6132
24.4936,5751
24.4994,6006
24.5052,5911
24.511,5722
24.5167,5918
24.5225,5703
24.5283,6276
24.5341,5959
24.5399,5718
24.5456,5678
24.5514,5962
24.5572,5930
24.563,5793
24.5687,5829
24.5745,5898
24.5803,6010
24.5861,6006
24.5918,6295
24.5976,5904
24.6034,6164
24.6092,5919
24.6149,6382
24.6207,5887
24.6265,5943
24.6323,6069
24.6381,6113
24.6438,6043
24.6496,5853
24.6554,5958
24.6612,5910
24.6669,6021
24.6727,6069
24.6785,5847
24.6843,5999
24.69,6201
24.6958,6016
24.7016,5835
24.7074,5781
24.7131,6049
24.7189,6149
24.7247,5861
24.7305,5984
24.7363,6082
24.742,6033
24.7478,6286
24.7536,6262
24.7594,6035
24.7651,6016
24.7709,5857
24.7767,5731
24.7825,5940
24.7882,6023
24.794,5764
24.7998,6161
24.8056,6039
24.8113,5751
24.8171,6389
24.8229,6095
24.8287,6084
24.8345,5929
24.8402,5920
24.846,6049
24.8518,6178
24.8576,5800
24.8633,5673
24.8691,5900
24.8749,5848
24.8807,5815
24.8864,5932
24.8922,6143
24.898,6166
24.9038,6042
24.9095,6201
24.9153,6198
24.9211,5918
24.9269,6019
24.9327,5768
24.9384,5835
24.9442,6107
24.95,5959
24.9558,6208
24.9615,5855
24.9673,6030
24.9731,5616
24.9789,6258
24.9846,6195
24.9904,5557
24.9962,5949
25.002,5778
25.0077,5755
25.0135,5872
25.0193,6051
25.0251,5767
25.0309,5917
25.0366,6124
25.0424,6130
25.0482,5950
25.054,5933
25.0597,5915
25.0655,6230
25.0713,5899
25.0771,6050
25.0828,5925
25.0886,6270
25.0944,6005
25.1002,6260
25.1059,5929
25.1117,5997
25.1175,5844
25.1233,5943
25.129,5909
25.1348,6171
25.1406,5921
25.1464,5855
25.1522,6092
25.1579,5740
25.1637,6097
25.1695,6138
25.1753,6144
25.181,6164
25.1868,5762
25.1926,5784
25.1984,6027
25.2041,6127
25.2099,6209
25.2157,6145
25.2215,6020
25.2272,6202
25.233,5960
25.2388,6248
25.2446,5700
25.2504,6050
25.2561,5755
25.2619,5722
25.2677,5998
25.2735,5703
25.2792,5730
25.285,5909
25.2908,6070
25.2966,6205
25.3023,5866
25.3081,5992
25.3139,6212
25.3197,5799
25.3254,5834
25.3312,6185
25.337,5742
25.3428,5718
25.3485,5941
25.3543,6196
25.3601,5944
25.3659,6217
25.3717,5987
25.3774,6153
25.3832,5944
25.389,6281
25.3948,6113
25.4005,6131
25.4063,6123
25.4121,6280
25.4179,5966
25.4236,6060
25.4294,6131
25.4352,6028
25.441,6394
25.4468,6453
25.4525,6091
25.4583,5903
25.4641,5906
25.4699,6168
25.4756,6189
25.4814,6249
25.4872,5966
25.493,6034
25.4987,6735
25.5045,6511
25.5103,5963
25.5161,6159
25.5218,6094
25.5276,6050
25.5334,6251
25.5392,6356
25.545,5857
25.5507,6199
25.5565,5595
25.5623,6022
25.568,5906
25.5738,6117
25.5796,6134
25.5854,6095
25.5912,6134
25.5969,6088
25.6027,6138
25.6085,5989
25.6143,5864
25.62,5698
25.6258,6425
25.6316,5938
25.6374,6152
25.6432,5983
25.6489,6362
25.6547,6320
25.6605,6288
25.6663,6239
25.672,6384
25.6778,6076
25.6836,6050
25.6894,6152
25.6951,5899
25.7009,6111
25.7067,6368
25.7125,5977
25.7182,6065
25.724,6273
25.7298,5813
25.7356,5873
25.7414,6017
25.7471,5939
25.7529,6122
25.7587,6249
25.7645,6282
25.7702,5878
25.776,5914
25.7818,6195
25.7876,6122
25.7933,6221
25.7991,5819
25.8049,5906
25.8107,5933
25.8164,6024
25.8222,5918
25.828,6092
25.8338,6174
25.8396,6122
25.8453,5853
25.8511,6257
25.8569,6159
25.8627,6161
25.8684,6810
25.8742,6217
25.88,5962
25.8858,5885
25.8915,5765
25.8973,6093
25.9031,6231
25.9089,6321
25.9146,5940
25.9204,6171
25.9262,6262
25.932,6218
25.9378,6225
25.9435,5897
25.9493,6209
25.9551,6364
25.9609,6192
25.9666,6167
25.9724,6060
25.9782,5923
25.984,6136
25.9897,6321
25.9955,6307
26.0013,5952
26.0071,6126
26.0128,6132
26.0186,5676
26.0244,6036
26.0302,6219
26.036,5644
26.0417,6202
26.0475,5913
26.0533,6247
26.0591,6178
26.0648,6173
26.0706,6403
26.0764,6088
26.0822,6211
26.0879,6022
26.0937,6060
26.0995,6597
26.1053,6322
26.111,6285
26.1168,5855
26.1226,5915
26.1284,6043
26.1342,6049
26.1399,6183
26.1457,5878
26.1515,6176
26.1573,6295
26.163,5892
26.1688,5846
26.1746,5987
26.1804,6114
26.1861,6124
26.1919,5942
26.1977,6188
26.2035,6368
26.2092,6165
26.215,5829
26.2208,6169
26.2266,6097
26.2324,6184
26.2381,5891
26.2439,5948
26.2497,5996
26.2555,6399
26.2612,6442
26.267,6358
26.2728,5952
26.2786,6251
26.2843,5977
26.2901,5885
26.2959,6178
26.3017,6312
26.3074,6154
26.3132,5907
26.319,5984
26.3248,6258
26.3306,6025
26.3363,5808
26.3421,5930
26.3479,6167
26.3537,6476
26.3594,5950
26.3652,6293
26.371,6263
26.3768,6128
26.3825,6200
26.3883,6147
26.3941,6254
26.3999,5922
26.4056,6146
26.4114,6045
26.4172,6034
26.423,6276
26.4287,6239
26.4345,6076
26.4403,6056
26.4461,5974
26.4519,6219
26.4576,5909
26.4634,6258
26.4692,6356
26.475,6328
26.4807,6245
26.4865,6191
26.4923,6144
26.4981,6107
26.5038,5851
26.5096,6134
26.5154,5981
26.5212,5688
26.5269,6137
26.5327,6337
26.5385,5930
26.5443,6117
26.5501,6162
26.5558,6161
26.5616,6452
26.5674,6241
26.5732,6124
26.5789,6038
26.5847,6078
26.5905,5892
26.5963,6034
26.602,5996
26.6078,6272
26.6136,6160
26.6194,6344
26.6251,6068
26.6309,5958
26.6367,5959
26.6425,5898
26.6483,6245
26.654,5909
26.6598,5860
26.6656,6173
26.6714,6645
26.6771,6345
26.6829,6183
26.6887,6285
26.6945,6060
26.7002,6051
26.706,6201
26.7118,5952
26.7176,6155
26.7233,6031
26.7291,5834
26.7349,6007
26.7407,6291
26.7465,5882
26.7522,5991
26.758,6006
26.7638,6135
26.7696,6179
26.7753,6054
26.7811,6005
26.7869,6086
26.7927,6090
26.7984,6043
26.8042,6164
26.81,6194
26.8158,6187
26.8215,6228
26.8273,5962
26.8331,5917
26.8389,5679
26.8447,6210
26.8504,5993
26.8562,5979
26.862,6032
26.8678,6054
26.8735,6111
26.8793,5729
26.8851,6032
26.8909,5974
26.8966,6181
26.9024,5566
26.9082,6108
26.914,5762
26.9197,6179
26.9255,5957
26.9313,6086
26.9371,6048
26.9429,5960
26.9486,6090
26.9544,5992
26.9602,6172
26.966,5838
26.9717,6055
26.9775,6107
26.9833,6132
26.9891,5990
26.9948,6208
27.0006,6252
27.0064,6035
27.0122,5858
27.0179,6038
27.0237,5939
27.0295,5967
27.0353,6007
27.0411,6100
27.0468,6058
27.0526,5861
27.0584,5955
27.0642,6131
27.0699,6030
27.0757,5953
27.0815,6293
27.0873,5905
27.093,6055
27.0988,6322
27.1046,5821
27.1104,6119
27.1161,5970
27.1219,6322
27.1277,6182
27.1335,6048
27.1393,6363
27.145,6362
27.1508,6474
27.1566,6164
27.1624,5994
27.1681,6328
27.1739,6132
27.1797,6030
27.1855,6040
27.1912,6058
27.197,6297
27.2028,6281
27.2086,6004
27.2143,6026
27.2201,6015
27.2259,5961
27.2317,6166
27.2375,6045
27.2432,6124
27.249,6333
27.2548,6689
27.2606,6455
27.2663,6433
27.2721,6214
27.2779,6047
27.2837,6487
27.2894,6339
27.2952,6328
27.301,6205
27.3068,6048
27.3125,6381
27.3183,6398
27.3241,6046
27.3299,6368
27.3357,5999
27.3414,6270
27.3472,6015
27.353,5929
27.3588,5890
27.3645,6412
27.3703,6167
27.3761,5892
27.3819,6146
27.3876,5958
27.3934,5809
27.3992,5944
27.405,6049
27.4107,6340
27.4165,6132
27.4223,6251
27.4281,6148
27.4339,6004
27.4396,6465
27.4454,5885
27.4512,5777
27.457,6135
27.4627,6134
27.4685,6198
27.4743,6431
27.4801,6217
27.4858,6178
27.4916,6241
27.4974,6040
27.5032,6344
27.5089,6157
27.5147,6441
27.5205,5953
27.5263,6000
27.5321,5929
27.5378,5814
27.5436,6059
27.5494,6216
27.5552,6305
27.5609,6168
27.5667,6078
27.5725,6063
27.5783,6233
27.584,6368
27.5898,6138
27.5956,6164
27.6014,6280
27.6071,6344
27.6129,5947
27.6187,6356
27.6245,6175
27.6303,5956
27.636,6121
27.6418,6354
27.6476,6118
27.6534,5904
27.6591,5962
27.6649,6134
27.6707,6053
27.6765,6150
27.6822,6324
27.688,6580
27.6938,6141
27.6996,6074
27.7053,6377
27.7111,6286
27.7169,6124
27.7227,6349
27.7284,6170
27.7342,6385
27.74,6397
27.7458,6187
27.7516,6025
27.7573,6064
27.7631,6164
27.7689,6107
27.7747,5986
27.7804,6228
27.7862,6422
27.792,6255
27.7978,5977
27.8035,5914
27.8093,6377
27.8151,6050
27.8209,6248
27.8266,6329
27.8324,5995
27.8382,6217
27.844,6290
27.8498,6168
27.8555,6318
27.8613,6184
27.8671,6442
27.8729,6112
27.8786,5841
27.8844,6100
27.8902,6270
27.896,6030
27.9017,6069
27.9075,6148
27.9133,6031
27.9191,6250
27.9248,6307
27.9306,6280
27.9364,5888
27.9422,6300
27.948,6795
27.9537,6199
27.9595,6207
27.9653,5999
27.9711,6440
27.9768,6290
27.9826,6124
27.9884,6113
27.9942,6157
27.9999,6097
28.0057,6221
28.0115,6306
28.0173,6374
28.023,6362
28.0288,6157
28.0346,6327
28.0404,6248
28.0462,6430
28.0519,6142
28.0577,5952
28.0635,5818
28.0693,6284
28.075,6750
28.0808,6473
28.0866,6405
28.0924,6194
28.0981,5846
28.1039,6106
28.1097,6083
28.1155,5981
28.1212,6280
28.127,6183
28.1328,6348
28.1386,6104
28.1444,6352
28.1501,6151
28.1559,5905
28.1617,6351
28.1675,5898
28.1732,6203
28.179,6401
28.1848,6472
28.1906,6146
28.1963,6111
28.2021,6415
28.2079,6189
28.2137,6535
28.2194,6261
28.2252,6399
28.231,6114
28.2368,6287
28.2426,6095
28.2483,6244
28.2541,6246
28.2599,6052
28.2657,6330
28.2714,6008
28.2772,6080
28.283,6013
28.2888,6257
28.2945,5867
28.3003,6141
28.3061,5964
28.3119,6414
28.3176,6167
28.3234,6600
28.3292,6102
28.335,6301
28.3408,6149
28.3465,6007
28.3523,6598
28.3581,6366
28.3639,5950
28.3696,6236
28.3754,6281
28.3812,6281
28.387,6269
28.3927,6130
28.3985,6028
28.4043,5836
28.4101,6077
28.4158,6187
28.4216,6291
28.4274,6378
28.4332,5843
28.439,6117
28.4447,6048
28.4505,6394
28.4563,6075
28.4621,6140
28.4678,6033
28.4736,6215
28.4794,6313
28.4852,5716
28.4909,6190
28.4967,6182
28.5025,6247
28.5083,6225
28.514,6155
28.5198,6161
28.5256,6167
28.5314,6482
28.5372,6068
28.5429,6318
28.5487,6261
28.5545,6028
28.5603,6081
28.566,6235
28.5718,6498
28.5776,6062
28.5834,5765
28.5891,6017
28.5949,6220
28.6007,6385
28.6065,6511
28.6122,6099
28.618,6330
28.6238,6280
28.6296,6088
28.6354,6177
28.6411,6251
28.6469,5961
28.6527,6349
28.6585,6218
28.6642,6390
28.67,6449
28.6758,6097
28.6816,6264
28.6873,6147
28.6931,6135
28.6989,6191
28.7047,5914
28.7104,5851
28.7162,5839
28.722,6132
28.7278,6142
28.7336,6262
28.7393,6093
28.7451,5991
28.7509,5986
28.7567,5987
28.7624,6162
28.7682,6291
28.774,6218
28.7798,6113
28.7855,6063
28.7913,6273
28.7971,5897
28.8029,6043
28.8086,6448
28.8144,6082
28.8202,6184
28.826,6086
28.8318,6327
28.8375,6235
28.8433,6293
28.8491,6197
28.8549,6170
28.8606,6259
28.8664,6286
28.8722,6254
28.878,6208
28.8837,5898
28.8895,6097
28.8953,5913
28.9011,6064
28.9068,6167
28.9126,6224
28.9184,5879
28.9242,5884
28.93,6348
28.9357,6289
28.9415,6286
28.9473,6249
28.9531,6272
28.9588,6317
28.9646,5780
28.9704,6058
28.9762,6057
28.9819,6290
28.9877,6604
28.9935,6255
28.9993,5848
29.005,6204
29.0108,6304
29.0166,6313
29.0224,6659
29.0281,6392
29.0339,6226
29.0397,6163
29.0455,6186
29.0513,6137
29.057,6349
29.0628,6192
29.0686,6320
29.0744,6188
29.0801,6095
29.0859,6237
29.0917,6120
29.0975,6243
29.1032,6096
29.109,6332
29.1148,6276
29.1206,6024
29.1263,6095
29.1321,6651
29.1379,6444
29.1437,6270
29.1495,5985
29.1552,6110
29.161,6422
29.1668,5825
29.1726,6082
29.1783,6388
29.1841,6407
29.1899,6120
29.1957,6223
29.2014,6123
29.2072,6165
29.213,6340
29.2188,6406
29.2245,5962
29.2303,5841
29.2361,5958
29.2419,6144
29.2477,6483
29.2534,6132
29.2592,6126
29.265,6366
29.2708,6315
29.2765,6408
29.2823,6234
29.2881,6169
29.2939,6358
29.2996,6029
29.3054,6358
29.3112,6280
29.317,6078
29.3227,6254
29.3285,6520
29.3343,5987
29.3401,6352
29.3459,6393
29.3516,6056
29.3574,6084
29.3632,6332
29.369,6189
29.3747,6034
29.3805,6293
29.3863,6175
29.3921,5959
29.3978,6141
29.4036,6120
29.4094,6107
29.4152,6228
29.4209,6185
29.4267,6510
29.4325,6191
29.4383,6221
29.4441,6306
29.4498,6306
29.4556,6029
29.4614,6530
29.4672,6251
29.4729,6210
29.4787,6092
29.4845,6222
29.4903,6252
29.496,6196
29.5018,6495
29.5076,6301
29.5134,6134
29.5191,6496
29.5249,5974
29.5307,6212
29.5365,5822
29.5423,6093
29.548,6506
29.5538,6334
29.5596,6265
29.5654,6115
29.5711,6334
29.5769,6228
29.5827,6222
29.5885,6132
29.5942,6173
29.6,6184
29.6058,6260
29.6116,6297
29.6173,6507
29.6231,5880
29.6289,6370
29.6347,5999
29.6405,6082
29.6462,5957
29.652,6558
29.6578,6276
29.6636,6212
29.6693,6253
29.6751,6199
29.6809,5936
29.6867,6270
29.6924,6520
29.6982,6121
29.704,6169
29.7098,6023
29.7155,6244
29.7213,6000
29.7271,6402
29.7329,5892
29.7387,5981
29.7444,6227
29.7502,6263
29.756,5943
29.7618,6492
29.7675,6351
29.7733,6372
29.7791,6026
29.7849,5930
29.7906,6108
29.7964,6224
29.8022,6314
29.808,6367
29.8137,6347
29.8195,6031
29.8253,6378
29.8311,6316
29.8369,6076
29.8426,6374
29.8484,6447
29.8542,6249
29.86,5813
29.8657,6147
29.8715,6372
29.8773,6342
29.8831,6355
29.8888,6235
29.8946,6057
29.9004,6206
29.9062,6105
29.9119,5945
29.9177,5907
29.9235,6457
29.9293,5871
29.9351,5933
29.9408,6096
29.9466,6079
29.9524,6395
29.9582,6563
29.9639,6088
29.9697,6233
29.9755,6304
29.9813,5719
29.987,6184
29.9928,6412
29.9986,6399
30.0044,6430
30.0101,6522
30.0159,6136
30.0217,6425
30.0275,6180
30.0333,6076
30.039,6350
30.0448,5235
30.0506,4817
30.0564,4492
30.0621,4147
30.0679,3885